##TITLE=Z189_2_c
##JCAMP-DX=5.01  $$ Nicolet v. 1
##DATATYPE=INFRARED SPECTRUM
##ORIGIN=UniL
##OWNER=Nicolet
##LONGDATE=2011/09/14
##TIME=16:45:29
##SPECTROMETER/DATA SYSTEM=Nicolet iS5
##DATA PROCESSING=
Ratio against background
%Transmittance->Absorbance
Truncated
ElementMultiply or ElementDivide
##COMMENTS=
Number of sample scans: 32
Collection length: 51.23 sec
Sample gain: 2.0
Background collected on: Mer Sep 14 16:41:24 2011 (GMT+02:00);
Number of background scans: 32
Background gain: 2.0
Sample spacing:  1.000
Number of scan points: 12415
Resolution points: 8192
Number of FFT points: 65536
Apodization: N-B fort;
Phase correction: Mertz;
Laser frequency: 15798.0 cm-1
Number of rejected sample scans: 0
Number of rejected background scans: 0
Bench serial number: ASB1000141;
##RESOLUTION=4.000
##XUNITS=1/CM
##YUNITS=ABSORBANCE
##FIRSTX=649.893372
##LASTX=4000.122314
##FIRSTY=0.102708
##MAXX=4000.122314
##MINX=649.893372
##MAXY=0.263945
##MINY=-0.004911
##XFACTOR=1.000000
##YFACTOR=1.000000E-009
##NPOINTS=6950
##DELTAX=0.482117
##ZPD=6100
##XYDATA=(X++(Y..Y))
649.893 102708408 101990608 101294208 100655144 100105544 99663088 99330848 
653.268 99096144 98939320 98840336 98787840 98781264 98830312 98948096 
656.643 99145928 99427528 99786400 100206696 100668800 101155280 101655128 
660.018 102167824 102700640 103263912 103864608 104501888 105166896 
662.911 105847264 106534240 107223880 107917464 108613088 109292736 
665.803 109918144 110426424 110745328 110834104 110732032 110571296 
668.696 110503512 110618272 110898984 111254704 111565944 111730272 
671.589 111695128 111462080 111088600 110656400 110242184 109879952 
674.481 109553160 109210760 108802640 108308672 107749912 107175824 
677.374 106635456 106150336 105702784 105245384 104726000 104119352 
680.267 103439160 102732584 102054096 101441296 100895464 100385192 99861240 
683.642 99283040 98639736 97950336 97254040 96587112 95970064 95397848 
687.016 94850328 94305016 93753280 93206552 92692096 92238680 91865528 
690.391 91573520 91347504 91164272 91005304 90863384 90747272 90675088 
693.766 90666352 90736456 90892096 91131288 91448600 91838464 92298672 
697.141 92829976 93434936 94113912 94864096 95678680 96547808 97460216 
700.516 98404816 99372544 100355544 101347176 102341288 103329144 104299288 
703.890 105234360 106113192 106914840 107623000 108232744 108753224 
706.783 109206544 109620920 110019040 110412584 110798352 111164984 
709.676 111500712 111805312 112093184 112391304 112727624 113119072 
712.569 113564056 114042152 114521336 114966688 115353368 115666136 
715.461 115898688 116047168 116107904 116079416 115969872 115807440 
718.354 115644600 115546880 115586320 115816920 116257752 116888464 
721.247 117652400 118474136 119268504 119961824 120497656 120836304 
724.139 120959688 120870832 120598600 120194808 119732720 119295504 
727.032 118953096 118753088 118709544 118805096 119002120 119257648 
729.925 119542048 119839944 120151552 120482352 120835600 121207136 
732.817 121588760 121973576 122362864 122766256 123198712 123671160 
735.710 124185656 124732736 125296904 125864072 126428216 126991568 
738.603 127562912 128148136 128746944 129351912 129954040 130549472 
741.496 131144016 131749440 132373544 133009208 133626832 134178000 
744.388 134602432 134848512 134887696 134720208 134372880 133887784 
747.281 133314744 132697728 132076488 131488336 130966144 130538240 
750.174 130223840 130025368 129928648 129905952 129928472 129974320 
753.066 130039272 130134672 130282416 130501272 130797656 131160424 
755.959 131563736 131975096 132360368 132691888 132948640 133114176 
758.852 133177024 133133176 132989320 132766336 132497728 132224768 
761.744 131981744 131789920 131652120 131556240 131484792 131425184 
764.637 131377384 131353168 131370040 131441432 131572488 131757736 
767.530 131985696 132242832 132518096 132803976 133093568 133383560 
770.423 133677360 133994680 134373280 134867936 135534112 136399088 
773.315 137434928 138538032 139545936 140252128 140459904 140046064 
776.208 138980416 137339376 135264480 132927712 130471600 127975344 
779.101 125455632 122876520 120182832 117323696 114276688 111053000 
781.993 107694456 104259936 100817224 97436912 94179176 91095160 88223856 
785.368 85587200 83194888 81044520 79126008 77427232 75936968 74647672 
788.743 73554976 72656392 71949208 71429744 71093824 70939112 70966848 
792.118 71182152 71592416 72204632 73018224 74021552 75185296 76462488 
795.493 77786160 79067216 80206520 81093440 81616440 81686744 81244624 
798.867 80278832 78830088 76990536 74889056 72662152 70447936 68357944 
802.242 66463268 64796172 63346720 62074216 60917612 59816064 58723176 
805.617 57616200 56502600 55413836 54396096 53490608 52722408 52090964 
808.992 51569820 51112432 50663680 50176600 49617480 48971612 48241720 
812.367 47442088 46592420 45711768 44819304 43932332 43066084 42235120 
815.742 41451932 40724040 40055460 39445964 38893344 38394628 37948732 
819.116 37555816 37216828 36931812 36698940 36514192 36373660 36274592 
822.491 36218404 36210012 36257444 36369696 36553156 36809788 37135104 
825.866 37518172 37940088 38375332 38793552 39157452 39430252 39579112 
829.241 39580308 39426336 39128520 38717476 38235572 37732624 37259064 
832.616 36854076 36545872 36346240 36250064 36236232 36269944 36309464 
835.990 36308056 36224164 36029684 35713036 35283648 34767808 34205112 
839.365 33637668 33102002 32626248 32225594 31903822 31657484 31478680 
842.740 31358928 31289448 31262920 31271928 31309958 31371680 31453602 
846.115 31554248 31673916 31812828 31970084 32142452 32323990 32508106 
849.490 32688654 32861594 33025772 33182714 33335600 33488862 33646872 
852.865 33814924 33998456 34203392 34435792 34700472 35000656 35338528 
856.239 35714944 36131472 36591796 37101652 37669416 38304724 39016532 
859.614 39813968 40705296 41698344 42800760 44018240 45352044 46793908 
862.989 48322816 49903400 51482780 53000460 54392904 55600436 56581556 
866.364 57316200 57813516 58110564 58273812 58393488 58566056 58893560 
869.739 59468940 60361788 61622208 63270360 65296896 67657600 70272064 
873.113 73026808 75762128 78291104 80416088 81935200 82689632 82582176 
876.488 81591768 79777504 77265568 74233648 70868496 67359488 63878284 
879.863 60554792 57487956 54739864 52336948 50282980 48563456 47154644 
883.238 46027764 45153548 44505248 44055568 43778676 43649912 43644492 
886.613 43742248 43929360 44200336 44558700 45014596 45582248 46273732 
889.987 47097252 48056144 49150044 50378116 51742532 53249548 54909892 
893.362 56736716 58742408 60935800 63318044 65877632 68581160 71365304 
896.737 74132864 76737816 79002984 80738552 81756728 81921752 81169960 
900.112 79526096 77098592 74065200 70651912 67081176 63564912 60279588 
903.487 57343080 54829100 52765996 51146724 49941536 49107268 48598396 
906.862 48368224 48377296 48595732 49002248 49585684 50343512 51279668 
910.236 52401320 53715004 55220732 56906056 58739184 60661156 62592624 
913.611 64431712 66065656 67396008 68344792 68873472 68989504 68745552 
916.986 68232848 67559456 66847140 66205828 65716512 65429932 65354668 
920.361 65461248 65687096 65951944 66175580 66288768 66255660 66079348 
923.736 65806532 65516964 65316848 65325476 65647864 66370448 67543664 
927.110 69171816 71207176 73544856 76036584 78479224 80639120 82287024 
930.485 83199192 83205608 82216384 80230440 77347480 73749256 69691616 
933.860 65447116 61275624 57406984 53998344 51143780 48879680 47195344 
937.235 46052964 45401408 45191196 45372276 45892220 46693468 47697580 
940.610 48805448 49907004 50879280 51610752 52021224 52066008 51750332 
943.985 51121452 50264272 49278668 48262896 47304620 46463192 45772216 
947.359 45242340 44867724 44633348 44520628 44511816 44589392 44734892 
950.734 44930404 45156084 45393352 45628028 45850972 46060368 46260316 
954.109 46459028 46665648 46887876 47131520 47400140 47696252 48022132 
957.484 48379628 48770228 49193424 49647564 50128996 50633896 51159808 
960.859 51706548 52275768 52869984 53490832 54137944 54809064 55500872 
964.233 56211024 56940164 57691460 58470096 59281316 60128336 61011444 
967.608 61928184 62874928 63848228 64846216 65868376 66914396 67984168 
970.983 69076744 70191592 71329456 72493096 73687504 74918584 76192184 
974.358 77512104 78880664 80299792 81772128 83303616 84903328 86581672 
977.733 88350944 90222592 92207048 94316296 96563200 98963288 101534672 
981.108 104294952 107259128 110438008 113836392 117451688 121271088 
984.000 125268432 129393160 133559136 137647136 141490864 144889840 
986.893 147644992 149563600 150502288 150392208 149242592 147146864 
989.786 144261920 140806608 137023280 133151456 129424856 126029192 
992.678 123099680 120723448 118934312 117728648 117076840 116938816 
995.571 117271000 118032304 119189760 120712336 122571824 124743064 
998.464 127199528 129914000 132857160 135987328 139244656 142549024 
1001.356 145787216 148825792 151526352 153750752 155393136 156391424 
1004.249 156734960 156468288 155686144 154531824 153168352 151776304 
1007.142 150537072 149599792 149086096 149077408 149611344 150694928 
1010.035 152312368 154438768 157045856 160108976 163607856 167522800 
1012.927 171834144 176523008 181568080 186945664 192623216 198539424 
1015.820 204593344 210626304 216402288 221642896 226039936 229298992 
1018.713 231213600 231691968 230795232 228724016 225815440 222497312 
1021.605 219201440 216360576 214333840 213361712 213581504 215009136 
1024.498 217564544 221085600 225366352 230186528 235307024 240503936 
1027.391 245565280 250279840 254465136 257968432 260681328 262559824 
1030.284 263622432 263945040 263634528 262817584 261621360 260151536 
1033.177 258497600 256719536 254839696 252840096 250658656 248202064 
1036.070 245352432 241999456 238065712 233515632 228367120 222681296 
1038.963 216552912 210089616 203405200 196618368 189838544 183170416 
1041.856 176709104 170526512 164677200 159197376 154107936 149426192 
1044.750 145171776 141367280 138041280 135221136 132926536 131168752 
1047.643 129947336 129252224 129065480 129364552 130123320 131308568 
1050.536 132882536 134801872 137016192 139477760 142140848 144962064 
1053.429 147902400 150915680 153939680 156896320 159681328 162171440 
1056.322 164245792 165785600 166696400 166920336 166438464 165278944 
1059.215 163515568 161275488 158725552 156055376 153477360 151186960 
1062.108 149349312 148098112 147515280 147640400 148472976 149978896 
1065.001 152092064 154713504 157724384 160976480 164302656 167542848 
1067.894 170540304 173162896 175316032 176931344 177967760 178403344 
1070.787 178228448 177445760 176070000 174131760 171675248 168756160 
1073.680 165446368 161828272 157999888 154083568 150212624 146534288 
1076.573 143202480 140350032 138091536 136511040 135651776 135519312 
1079.466 136075728 137243600 138893920 140851184 142913600 144845072 
1082.359 146418832 147455984 147839760 147552128 146671792 145369920 
1085.252 143870320 142418096 141263552 140611264 140615840 141370528 
1088.146 142894544 145136128 147968880 151217264 154652496 158017296 
1091.039 161072128 163591824 165399776 166385472 166494112 165731680 
1093.932 164151904 161853008 158960128 155607104 151933888 148060656 
1096.825 144082192 140071456 136076112 132128000 128251448 124465048 
1099.718 120784176 117220872 113782000 110471680 107294888 104260824 
1102.611 101388560 98707856 96254616 94072176 92203000 90683576 89546216 
1105.986 88815760 88509512 88639728 89212304 90225936 91670408 93525792 
1109.361 95761288 98332336 101184976 104252400 107449872 110681624 113832384 
1112.737 116768264 119357472 121468488 122990808 123852592 124020528 
1115.630 123505520 122353376 120641688 118466952 115931144 113143104 
1118.523 110201064 107185200 104159864 101166080 98226520 95353888 92556184 
1121.898 89843992 87234608 84749816 82416024 80261088 78309872 76586136 
1125.273 75112224 73907616 72991920 72383128 72094816 72135936 72507736 
1128.648 73202736 74203184 75480592 76997456 78700832 80526400 82399320 
1132.024 84230440 85932504 87428064 88658784 89602128 90273904 90729760 
1135.399 91050488 91334496 91682240 92172720 92860176 93760592 94850816 
1138.774 96066824 97311536 98473312 99426368 100055104 100268680 99999664 
1142.149 99213872 97905128 96090592 93806152 91103048 88049968 84724648 
1145.525 81213552 77609512 73996440 70451016 67038836 63807392 60792932 
1148.900 58019404 55499440 53237936 51232876 49477060 47958964 46664396 
1152.275 45579084 44688136 43978640 43440580 43065648 42848040 42783240 
1155.650 42867128 43096384 43468192 43980580 44633052 45426388 46362276 
1159.026 47442048 48666440 50034212 51542096 53183332 54946180 56813444 
1162.401 58757620 60740184 62714384 64620964 66395432 67974944 69295352 
1165.776 70302064 70951672 71212328 71069400 70525416 69601104 68330952 
1169.151 66759884 64940676 62923944 60760344 58498644 56181272 53848888 
1172.527 51538888 49281488 47103604 45026688 43066196 41234216 39538828 
1175.902 37984820 36574312 35306756 34179660 33188582 32328524 31594406 
1179.277 30981288 30485492 30104174 29835074 29676212 29625448 29680044 
1182.652 29836670 30092168 30442984 30886786 31420798 32042418 32747534 
1186.028 33529486 34377868 35279764 36218044 37172968 38123524 39045676 
1189.403 39915448 40710280 41410012 42001688 42481584 42856852 43144500 
1192.778 43370240 43564992 43759252 43981904 44257196 44601692 45025808 
1196.153 45532420 46117696 46769364 47467104 48183776 48882088 49517312 
1199.529 50041356 50399660 50540008 50418196 50000492 49273992 48248572 
1202.904 46959748 45461664 43822216 42116928 40413368 38770836 37235384 
1206.279 35835868 34588296 33497490 32560028 31767730 31109266 30572940 
1209.654 30145830 29816050 29573270 29409326 29318748 29298968 29349128 
1213.030 29469288 29659076 29916778 30239318 30621896 31058156 31540782 
1216.405 32060362 32605674 33164546 33723496 34268892 34789096 35273624 
1219.780 35714080 36104716 36441436 36722664 36949920 37129188 37270800 
1223.155 37389448 37504228 37636604 37807444 38037800 38344676 38740372 
1226.531 39231324 39816840 40488288 41227808 42011104 42806644 43578332 
1229.906 44291800 44913908 45417596 45785216 46009272 46094740 46059004 
1233.281 45933836 45762716 45593952 45483040 45482492 45637708 45988420 
1236.656 46563724 47383696 48461492 49803352 51409556 53272736 55377812 
1240.031 57698496 60194520 62816224 65499968 68169544 70745568 73139528 
1243.407 75262408 77037496 78400280 79311752 79762568 79772840 79388360 
1246.782 78671720 77701552 76560168 75327152 74079504 72876968 71757952 
1250.157 70735384 69793744 68892848 67974632 66980956 65862516 64591468 
1253.532 63168944 61624312 60010916 58392048 56837164 55408376 54149240 
1256.908 53085448 52218404 51527768 50972160 50496272 50038008 49530980 
1260.283 48917428 48153792 47212668 46087816 44791864 43354824 41816424 
1263.658 40223984 38627216 37069280 35587000 34207944 32947660 31813792 
1267.033 30806000 29919512 29145654 28474662 27896774 27402016 26981362 
1270.409 26626742 26330004 26084482 25883658 25722368 25596352 25502488 
1273.784 25437946 25400144 25386372 25393644 25419150 25460396 25515104 
1277.159 25581134 25655436 25733654 25810090 25878066 25931068 25964132 
1280.534 25974228 25959980 25920762 25855242 25761216 25635718 25476452 
1283.910 25284126 25063802 24825732 24583584 24353628 24152444 23994106 
1287.285 23890892 23852944 23889212 24008778 24221422 24535970 24960122 
1290.660 25498096 26148876 26904752 27749004 28656940 29591642 30507034 
1294.035 31352804 32074488 32626032 32976258 33113192 33047400 32809526 
1297.411 32446262 32008820 31548262 31110120 30726972 30421448 30205322 
1300.786 30081268 30044232 30082794 30180958 30318188 30471916 30621470 
1304.161 30746960 30833460 30870670 30853204 30780212 30654820 30483964 
1307.536 30277188 30045866 29803310 29562416 29335374 29133394 28965756 
1310.912 28840390 28764374 28743416 28782110 28883486 29048610 29277168 
1314.287 29567700 29918944 30330196 30801448 31333710 31927466 32582852 
1317.662 33299718 34077900 34917376 35818128 36778844 37795188 38857576 
1321.037 39948864 41045348 42115176 43119288 44017688 44769636 45340900 
1324.413 45712760 45886476 45889752 45771924 45604036 45464352 45421164 
1327.788 45528336 45810324 46261900 46851148 47530056 48247460 48955256 
1331.163 49620860 50228116 50777296 51282204 51767612 52265380 52807640 
1334.538 53425028 54140720 54965884 55897408 56917044 57996076 59095288 
1337.914 60170880 61181124 62083464 62841192 63425624 63817448 64009956 
1341.289 64008080 63826888 63485788 63005536 62406060 61703324 60909724 
1344.664 60035000 59085116 58064504 56976584 55824904 54616076 53361780 
1348.039 52078900 50792232 49532652 48333780 47233760 46271080 45480724 
1351.415 44896604 44546768 44451176 44623656 45068776 45782084 46746784 
1354.790 47933172 49295224 50766460 52269676 53716280 55013492 56080860 
1358.165 56849776 57273176 57331736 57033748 56417624 55543648 54498408 
1361.540 53383888 52303500 51360776 50637020 50178460 49993356 50051464 
1364.916 50295744 50647972 51027496 51356376 51563772 51600380 51439768 
1368.291 51083100 50555344 49899348 49166076 48400964 47643852 46925304 
1371.666 46267020 45689128 45212040 44856444 44643408 44588440 44695812 
1375.041 44956128 45348624 45847000 46424068 47058660 47736744 48450196 
1378.417 49196316 49977296 50799344 51671280 52602788 53598816 54653540 
1381.792 55742320 56817184 57813668 58650128 59242120 59517840 59418676 
1385.167 58914204 58010200 56762388 55278412 53700904 52191688 50882524 
1388.542 49851364 49119844 48661476 48423340 48340480 48352888 48405708 
1391.917 48447932 48436004 48328224 48089936 47701392 47163100 46498484 
1395.293 45743760 44937132 44104124 43252984 42381768 41488456 40582280 
1398.668 39691968 38860580 38132460 37541908 37101252 36803008 36627628 
1402.043 36553804 36564760 36650376 36807408 37035184 37332432 37695036 
1405.418 38116108 38587344 39101472 39652580 40236596 40850444 41490424 
1408.794 42152344 42832240 43526500 44233168 44951976 45682652 46423148 
1412.169 47167608 47905164 48622596 49306212 49945292 50536548 51083212 
1415.544 51594780 52082332 52558056 53033032 53518308 54028140 54579744 
1418.919 55187280 55858516 56586008 57347920 58112800 58847876 59526660 
1422.295 60128640 60645192 61079288 61444760 61762600 62054912 62339464 
1425.670 62624128 62907980 63183704 63441916 63673168 63870108 64028620 
1429.045 64147360 64228600 64277700 64304440 64322768 64348400 64398432 
1432.420 64486636 64620732 64801328 65023028 65278604 65562732 65879480 
1435.796 66245116 66689640 67243848 67927288 68738528 69652056 70624584 
1439.171 71598584 72512360 73295384 73875008 74190568 74192376 73850856 
1442.546 73157560 72121336 70766704 69129032 67257656 65207636 63032544 
1445.921 60787480 58523668 56294828 54166844 52211232 50496308 49073176 
1449.297 47962000 47155824 46631376 46364820 46339160 46544144 46969196 
1452.672 47591240 48367368 49241336 50137924 50972756 51662884 52127612 
1456.047 52317292 52236828 51963932 51617280 51303496 51084552 50972012 
1459.422 50950848 51002528 51116012 51287276 51513444 51786504 52087640 
1462.798 52387412 52654516 52863656 53008960 53107760 53197488 53318284 
1466.173 53494696 53730676 54008924 54300228 54568248 54776588 54889328 
1469.548 54863424 54649180 54189628 53429376 52338784 50939412 49318532 
1472.923 47603884 45922528 44358656 42939656 41656292 40490212 39435184 
1476.299 38504896 37725576 37118360 36690360 36428824 36309496 36305892 
1479.674 36401040 36591508 36886252 37299828 37844384 38526076 39344052 
1483.049 40295308 41378992 42599840 43965952 45481832 47142416 48922324 
1486.424 50768284 52604136 54324412 55802824 56910060 57518672 57531496 
1489.800 56910172 55690788 53984612 51943732 49728592 47462784 45216088 
1493.175 43019292 40871412 38763012 36698796 34703380 32825072 31125606 
1496.550 29657728 28448802 27494912 26772474 26249426 25897372 25696564 
1499.925 25632132 25690834 25859074 26120902 26459506 26858504 27297174 
1503.301 27748650 28176482 28523242 28712192 28652656 28259398 27495690 
1506.676 26406440 25111650 23746124 22403788 21119466 19887108 18689646 
1510.051 17518590 16378688 15290436 14280812 13370765 12572604 11885750 
1513.426 11300664 10803793 10381564 10021724 9712225 9442563 9205118 8997299 
1517.284 8822851 8689035 8601627 8559553 8553131 8563709 8571854 8564521 
1521.141 8544210 8529815 8547725 8616532 8737343 8896537 9073383 9251148 
1524.999 9421298 9587721 9763290 9964255 10201336 10475576 10780864 11108667 
1528.856 11453793 11816321 12200722 12612819 13055422 13528010 14026436 
1532.231 14545717 15082361 15636774 16211638 16807066 17419868 18041548 
1535.606 18661282 19266248 19844550 20386918 20883964 21327706 21711078 
1538.982 22027856 22272384 22442306 22542490 22584686 22585382 22560290 
1542.357 22517608 22455634 22363632 22229104 22043194 21809386 21543008 
1545.732 21266772 20999406 20747252 20501914 20244250 19954406 19619828 
1549.107 19244150 18846304 18453904 18088972 17758210 17451842 17150824 
1552.483 16837444 16504740 16160909 15827108 15527627 15276399 15070732 
1555.858 14890022 14701675 14464180 14132981 13673207 13076934 12385635 
1559.233 11685562 11069815 10590998 10250015 10016129 9849068 9713309 
1562.608 9579862 9430373 9258052 9068579 8878140 8706444 8569826 8472847 
1566.466 8407846 8358595 8307627 8241840 8157393 8060910 7966880 7891663 
1570.323 7845878 7832754 7849117 7889335 7947172 8016559 8090379 8158845 
1574.181 8210403 8235154 8229447 8201826 8173126 8169851 8209964 8298001 
1578.038 8425244 8577836 8743192 8913685 9088372 9271050 9467351 9681561 
1581.896 9914895 10165041 10427142 10694835 10960689 11216844 11453760 
1585.271 11661396 11831268 11957711 12040993 12087836 12111616 12129879 
1588.646 12161397 12225088 12335930 12505146 12739899 13042072 13406713 
1592.021 13819478 14257289 14686663 15068159 15365400 15547064 15595901 
1595.396 15510663 15306705 15011596 14657599 14278312 13900964 13544999 
1598.772 13223757 12943782 12706974 12511318 12352191 12223827 12121157 
1602.147 12041776 11986594 11959550 11964931 12005635 12080477 12184433 
1605.522 12308865 12442368 12573696 12689779 12777365 12823672 12815994 
1608.897 12745256 12607088 12404692 12149300 11859223 11558212 11268971 
1612.273 11008978 10788032 10606344 10457247 10329238 10210359 10089510 
1615.648 9960593 9825139 9693183 9580472 9501826 9466877 9477003 9525534 
1619.505 9601407 9690405 9779997 9859304 9922895 9972121 10014875 10062585 
1623.363 10125799 10210868 10317091 10440073 10573173 10711476 10851556 
1626.738 10991306 11129640 11266081 11401610 11538782 11683214 11841414 
1630.113 12018545 12217079 12435038 12666580 12902547 13132837 13349239 
1633.489 13544829 13716635 13865966 13999504 14129284 14269888 14435543 
1636.864 14634261 14867494 15130596 15415178 15710287 16004978 16291749 
1640.239 16567042 16832658 17094850 17360272 17632722 17910008 18183562 
1643.614 18440730 18668304 18855578 18998516 19101268 19177170 19244184 
1646.990 19321116 19424012 19562148 19737948 19948648 20186592 20438318 
1650.365 20682124 20890432 21026532 21055120 20962962 20783258 20596334 
1653.740 20482600 20479438 20569584 20709996 20856918 20980834 21067676 
1657.115 21113866 21123676 21103290 21056856 20984000 20880176 20738736 
1660.490 20553602 20321498 20042742 19722172 19369686 18998966 18626384 
1663.866 18267254 17932728 17625720 17340548 17062698 16772041 16444687 
1667.241 16058989 15601362 15071006 14481993 13861177 13241212 12650649 
1670.616 12108346 11621269 11186312 10792447 10423035 10058142 9676648 
1673.991 9262689 8814532 8349644 7904148 7515742 7210381 6990752 6840804 
1677.849 6735865 6653493 6581329 6518393 6473728 6458292 6479042 6533058 
1681.706 6608444 6687072 6754004 6803443 6846695 6909072 7018869 7192493 
1685.564 7426548 7707709 8020947 8356602 8708540 9072606 9444391 9816734 
1689.421 10181899 10533928 10869935 11191514 11502717 11806549 12101838 
1692.796 12382566 12636322 12848791 13007280 13108350 13162822 13196636 
1696.172 13240085 13309947 13402408 13492838 13546810 13523737 13390892 
1699.547 13137549 12791253 12415296 12075332 11809102 11611877 11453691 
1702.922 11296142 11106933 10864703 10560374 10198588 9795416 9373794 
1706.297 8954035 8549348 8164111 7795848 7437839 7082483 6723380 6356840 
1710.155 5983084 5605588 5230767 4864814 4512126 4173874 3848288 3532266 
1714.012 3223316 2921224 2628009 2345885 2075331 1814194 1559001 1309640 
1717.870 1072812 860614 685885 555914 468834 414406 377726 343702 301624 
1722.209 247449 184065 119298 61832 16666 -16401 -42243 -66428 -92599 
1726.549 -121949 -153151 -185246 -218828 -256050 -299560 -350085 -405139 
1730.406 -460385 -512148 -561788 -617775 -695092 -809372 -969214 -1165581 
1734.264 -1370974 -1550222 -1679031 -1754213 -1789489 -1805558 -1821496 
1737.639 -1851025 -1899391 -1963715 -2035088 -2103119 -2160028 -2203546 
1741.014 -2235456 -2258992 -2276197 -2287305 -2291623 -2289052 -2281010 
1744.389 -2270199 -2259486 -2250125 -2241521 -2231797 -2219468 -2204831 
1747.765 -2190326 -2179612 -2176315 -2181721 -2194282 -2210007 -2223951 
1751.140 -2232456 -2233280 -2226753 -2213963 -2196952 -2177337 -2157654 
1754.515 -2141334 -2131970 -2133157 -2145719 -2167149 -2191150 -2210732 
1757.890 -2220556 -2220259 -2214260 -2209315 -2213304 -2230874 -2261826 
1761.266 -2301214 -2341159 -2373915 -2394939 -2404199 -2404363 -2398959 
1764.641 -2390655 -2380934 -2370686 -2360800 -2352759 -2348013 -2346794 
1768.016 -2347354 -2346629 -2341851 -2332359 -2321450 -2315419 -2321516 
1771.391 -2344520 -2383241 -2429307 -2470491 -2497078 -2504852 -2496913 
1774.767 -2480803 -2464264 -2451810 -2444298 -2439356 -2434018 -2427066 
1778.142 -2420970 -2419784 -2428186 -2447593 -2475334 -2504787 -2528275 
1781.517 -2541385 -2544152 -2541649 -2539804 -2544218 -2556373 -2573600 
1784.892 -2590168 -2601037 -2603145 -2597447 -2586215 -2572941 -2559601 
1788.268 -2546886 -2535225 -2525837 -2521983 -2528275 -2549093 -2585952 
1791.643 -2635355 -2688572 -2735988 -2769604 -2786527 -2789753 -2785638 
1795.018 -2780041 -2777144 -2778691 -2784420 -2793737 -2806280 -2822509 
1798.393 -2843248 -2868001 -2895255 -2921947 -2944886 -2962460 -2974899 
1801.769 -2984574 -2993623 -3002870 -3011360 -3016361 -3015275 -3007312 
1805.144 -2993525 -2977433 -2962526 -2951830 -2945808 -2943800 -2943833 
1808.519 -2944919 -2947025 -2951369 -2958412 -2967824 -2976874 -2982139 
1811.894 -2981283 -2973780 -2962361 -2951501 -2945446 -2946005 -2952028 
1815.270 -2959103 -2962065 -2956865 -2942550 -2921388 -2897559 -2875440 
1818.645 -2857567 -2843873 -2832253 -2820468 -2807103 -2792091 -2776913 
1822.020 -2763481 -2753603 -2748500 -2748796 -2754426 -2764600 -2778132 
1825.395 -2791926 -2803185 -2809111 -2808419 -2802296 -2794428 -2790115 
1828.771 -2793868 -2808222 -2831430 -2857797 -2879983 -2892161 -2892161 
1832.146 -2881727 -2864973 -2846079 -2828138 -2811843 -2796239 -2779975 
1835.521 -2762295 -2743462 -2724102 -2704609 -2683271 -2656860 -2622247 
1838.896 -2576630 -2520171 -2456094 -2389403 -2325933 -2270627 -2226753 
1842.271 -2195568 -2177040 -2168798 -2166919 -2166325 -2160687 -2144532 
1845.647 -2114494 -2070704 -2015959 -1956129 -1897840 -1846703 -1805723 
1849.022 -1775300 -1753454 -1737778 -1727283 -1722960 -1727614 -1743850 
1852.397 -1772165 -1809947 -1852741 -1895168 -1933830 -1968564 -2001811 
1855.772 -2037528 -2078255 -2124057 -2171831 -2218248 -2260112 -2297127 
1859.148 -2331436 -2366006 -2403177 -2443013 -2483373 -2521192 -2554561 
1862.523 -2583646 -2610094 -2636639 -2664072 -2690680 -2713269 -2727889 
1865.898 -2732498 -2728810 -2721435 -2716660 -2718801 -2728909 -2743100 
1869.273 -2755744 -2761604 -2758476 -2748039 -2734803 -2722686 -2714092 
1872.649 -2708922 -2705300 -2701579 -2697068 -2692458 -2689857 -2690318 
1876.024 -2693611 -2697562 -2699834 -2698583 -2694829 -2691306 -2691898 
1879.399 -2699768 -2715870 -2738425 -2763876 -2788930 -2811119 -2830278 
1882.774 -2847363 -2863261 -2878139 -2890976 -2900455 -2905327 -2906215 
1886.150 -2904931 -2903154 -2902661 -2903154 -2903516 -2902693 -2899929 
1889.525 -2896242 -2893412 -2893083 -2895288 -2898481 -2900225 -2898579 
1892.900 -2893280 -2886203 -2880081 -2877448 -2879094 -2882945 -2885841 
1896.275 -2884097 -2876263 -2863459 -2848844 -2835446 -2824879 -2817176 
1899.651 -2809934 -2800617 -2788272 -2773259 -2757291 -2742442 -2728679 
1903.026 -2714718 -2697990 -2676783 -2651558 -2625080 -2601794 -2585853 
1906.401 -2578706 -2579331 -2584009 -2589344 -2592803 -2594351 -2595932 
1909.776 -2599588 -2606241 -2615232 -2624487 -2631798 -2637002 -2641085 
1913.152 -2645696 -2652085 -2660022 -2667365 -2672502 -2675433 -2678232 
1916.527 -2686136 -2704115 -2734210 -2774740 -2819382 -2860628 -2893543 
1919.902 -2918031 -2938074 -2960749 -2991057 -3029457 -3070979 -3107333 
1923.277 -3130065 -3135262 -3125163 -3106247 -3086870 -3072526 -3064366 
1926.653 -3059530 -3053509 -3043375 -3029753 -3016230 -3007345 -3006161 
1930.028 -3012840 -3023798 -3034491 -3042223 -3046994 -3051370 -3059069 
1933.403 -3072131 -3089667 -3109702 -3128519 -3145000 -3160657 -3178880 
1936.778 -3202924 -3232952 -3266135 -3296717 -3319209 -3331079 -3334072 
1940.154 -3333085 -3335091 -3343015 -3356528 -3370534 -3377472 -3371521 
1943.529 -3350216 -3315526 -3272317 -3226374 -3180788 -3138420 -3100359 
1946.904 -3067295 -3040578 -3022119 -3012478 -3010734 -3015473 -3023271 
1950.279 -3031859 -3041500 -3052127 -3065354 -3081179 -3097200 -3110162 
1953.655 -3117992 -3120097 -3120196 -3124473 -3138552 -3164867 -3201411 
1957.030 -3241437 -3276559 -3301584 -3315461 -3322004 -3327791 -3336274 
1960.405 -3346402 -3352879 -3347059 -3323484 -3283202 -3233346 -3185195 
1963.780 -3150526 -3136644 -3144144 -3168716 -3202693 -3238740 -3271890 
1967.156 -3298986 -3317565 -3325391 -3321445 -3305826 -3284386 -3266595 
1970.531 -3263570 -3284912 -3333447 -3403839 -3483390 -3557142 -3612448 
1973.906 -3643302 -3649907 -3635482 -3602328 -3549288 -3472050 -3367510 
1977.281 -3240713 -3104307 -2978256 -2882287 -2829060 -2818888 -2842787 
1980.656 -2883307 -2923856 -2953673 -2969404 -2974175 -2973780 -2973451 
1984.032 -2974142 -2974702 -2973056 -2968482 -2962723 -2959333 -2960354 
1987.407 -2966212 -2975064 -2983225 -2988786 -2992011 -2995071 -3001389 
1990.782 -3012445 -3025541 -3036136 -3039065 -3031300 -3014091 -2992143 
1994.157 -2970522 -2952587 -2938304 -2923494 -2904142 -2878831 -2849535 
1997.533 -2822114 -2803810 -2798543 -2806642 -2824847 -2846540 -2866652 
2000.908 -2883768 -2899402 -2916681 -2938238 -2962822 -2986417 -3004680 
2004.283 -3013531 -3013202 -3006325 -2996388 -2985232 -2972266 -2953936 
2007.658 -2928529 -2897756 -2868594 -2849535 -2849107 -2870009 -2907762 
2011.034 -2952291 -2990629 -3013400 -3017381 -3005173 -2982501 -2955154 
2014.409 -2925897 -2893280 -2855427 -2811942 -2766806 -2727362 -2701942 
2017.784 -2694467 -2703786 -2723443 -2743726 -2756632 -2759003 -2752813 
2021.159 -2744187 -2739281 -2742573 -2754229 -2773555 -2798148 -2825669 
2024.535 -2855789 -2885743 -2911053 -2925897 -2922869 -2896999 -2850358 
2027.910 -2789852 -2726538 -2671910 -2634268 -2614047 -2607690 -2606735 
2031.285 -2604594 -2596459 -2582098 -2562072 -2537828 -2510025 -2476224 
2034.660 -2436325 -2392567 -2348639 -2310838 -2284734 -2271847 -2271089 
2038.036 -2278241 -2287404 -2294556 -2298215 -2297918 -2294425 -2288953 
2041.411 -2280515 -2269078 -2256058 -2243334 -2234500 -2232753 -2237467 
2044.786 -2245642 -2251509 -2248773 -2232094 -2201403 -2159039 -2109845 
2048.161 -2058602 -2008869 -1962990 -1923934 -1895201 -1881543 -1886722 
2051.537 -1911597 -1951610 -1998414 -2040200 -2065856 -2071298 -2057975 
2054.912 -2034066 -2010551 -1996896 -1996072 -2005670 -2018598 -2027470 
2058.287 -2027964 -2020346 -2007352 -1993301 -1980570 -1967937 -1952698 
2061.662 -1931851 -1904537 -1873262 -1842645 -1816513 -1797177 -1783516 
2065.038 -1772066 -1759460 -1744114 -1726623 -1709957 -1697547 -1690847 
2068.413 -1689560 -1692993 -1699924 -1710914 -1727812 -1752365 -1784275 
2071.788 -1821562 -1858350 -1888768 -1908759 -1917798 -1918293 -1915357 
2075.163 -1913213 -1912652 -1912058 -1907572 -1895828 -1876396 -1852939 
2078.539 -1830833 -1815655 -1810607 -1814500 -1823310 -1831559 -1834957 
2081.914 -1831757 -1823574 -1812026 -1800675 -1790974 -1782823 -1775828 
2085.289 -1769624 -1764278 -1760516 -1758965 -1759064 -1759988 -1760813 
2088.664 -1761836 -1765037 -1773848 -1791865 -1820605 -1859537 -1903712 
2092.040 -1946563 -1981559 -2003757 -2011078 -2004944 -1988618 -1966123 
2095.415 -1942077 -1919844 -1902228 -1891671 -1888603 -1892166 -1899852 
2098.790 -1907077 -1909188 -1903514 -1889956 -1871052 -1852114 -1837993 
2102.165 -1830932 -1830206 -1832054 -1831856 -1826148 -1813708 -1795923 
2105.541 -1774904 -1752761 -1728901 -1702069 -1670317 -1633447 -1594131 
2108.916 -1557617 -1529289 -1513507 -1511426 -1520837 -1537379 -1556792 
2112.291 -1575809 -1593471 -1610472 -1626779 -1641435 -1652889 -1658204 
2115.666 -1655959 -1647146 -1634272 -1621068 -1610736 -1604398 -1600568 
2119.042 -1597729 -1593207 -1586274 -1577723 -1569173 -1561183 -1553490 
2122.417 -1544312 -1531766 -1515521 -1498285 -1483921 -1478175 -1485374 
2125.792 -1506341 -1539657 -1581388 -1627703 -1676259 -1727185 -1781008 
2129.167 -1839280 -1901040 -1963451 -2021995 -2073111 -2114033 -2145620 
2132.542 -2170281 -2189864 -2206018 -2218743 -2226523 -2229358 -2228995 
2135.918 -2229094 -2234269 -2248048 -2269968 -2296073 -2321648 -2341159 
2139.293 -2352034 -2355758 -2355527 -2355856 -2359514 -2366336 -2374805 
2142.668 -2382615 -2388612 -2393555 -2400903 -2413260 -2432569 -2458828 
2146.043 -2490225 -2523564 -2557131 -2588982 -2617768 -2642469 -2661866 
2149.419 -2674577 -2681558 -2686366 -2694006 -2711655 -2745932 -2799333 
2152.794 -2872610 -2962723 -3065847 -3178683 -3298526 -3420473 -3536635 
2156.169 -3632525 -3688873 -3685785 -3609754 -3460085 -3253769 -3020869 
2159.544 -2793934 -2600971 -2457642 -2363930 -2311662 -2289843 -2287503 
2162.920 -2297654 -2316968 -2341125 -2365216 -2383900 -2391183 -2384889 
2166.295 -2367588 -2345640 -2326789 -2317528 -2320165 -2333084 -2352133 
2169.670 -2373421 -2393687 -2413557 -2433788 -2454150 -2473489 -2488512 
2173.045 -2495266 -2491807 -2479716 -2461200 -2442486 -2427791 -2420245 
2176.421 -2420937 -2431020 -2450492 -2480605 -2521983 -2572019 -2624553 
2179.796 -2670395 -2699175 -2701876 -2676619 -2627023 -2563916 -2501031 
2183.171 -2448944 -2414545 -2399355 -2398992 -2407329 -2418763 -2428483 
2186.546 -2433326 -2431316 -2420410 -2399783 -2369302 -2330678 -2287305 
2189.922 -2242444 -2198733 -2156170 -2114033 -2070341 -2024534 -1979548 
2193.297 -1940427 -1912850 -1900743 -1904174 -1918062 -1935381 -1947948 
2196.672 -1950587 -1942736 -1928420 -1912949 -1902030 -1898302 -1901502 
2200.047 -1908561 -1915984 -1920734 -1921493 -1918260 -1911597 -1902162 
2203.423 -1890681 -1877122 -1862474 -1848188 -1834858 -1821759 -1807835 
2206.798 -1789786 -1764575 -1731871 -1692497 -1650876 -1612915 -1583864 
2210.173 -1566829 -1563032 -1570031 -1584293 -1602087 -1620078 -1635494 
2213.548 -1646486 -1651701 -1650513 -1643845 -1634669 -1627406 -1626746 
2216.924 -1636385 -1656223 -1683520 -1711838 -1734511 -1746953 -1748504 
2220.299 -1741672 -1732597 -1727350 -1729528 -1740352 -1758239 -1779490 
2223.674 -1800675 -1819549 -1833803 -1842282 -1844427 -1838917 -1826280 
2227.049 -1808396 -1788334 -1771076 -1761110 -1760186 -1768073 -1782163 
2230.425 -1798398 -1813511 -1826148 -1836871 -1847363 -1858713 -1870590 
2233.800 -1880619 -1886129 -1884809 -1875737 -1860626 -1841556 -1820671 
2237.175 -1798959 -1775926 -1750154 -1721310 -1690154 -1658600 -1629255 
2240.550 -1603837 -1582015 -1562405 -1542694 -1521431 -1498747 -1477085 
2243.926 -1458758 -1446638 -1441123 -1440595 -1442510 -1443997 -1443336 
2247.301 -1440298 -1436038 -1431216 -1426758 -1422596 -1417312 -1410707 
2250.676 -1402979 -1394722 -1386729 -1379562 -1371767 -1361891 -1348018 
2254.051 -1329553 -1307454 -1285188 -1266093 -1253670 -1249838 -1254595 
2257.427 -1266093 -1282875 -1302597 -1323442 -1344153 -1363245 -1378967 
2260.802 -1389768 -1394887 -1394722 -1391518 -1387951 -1386465 -1388116 
2264.177 -1392179 -1396175 -1397463 -1394160 -1385441 -1373286 -1360074 
2267.552 -1347919 -1338868 -1333418 -1331502 -1333088 -1338108 -1346862 
2270.927 -1358951 -1373551 -1388645 -1401724 -1410938 -1415000 -1414472 
2274.303 -1410773 -1405092 -1398421 -1390296 -1379298 -1364005 -1343823 
2277.678 -1319379 -1292026 -1264176 -1237052 -1211379 -1187225 -1163499 
2281.053 -1139871 -1116109 -1092214 -1068020 -1043594 -1018405 -992422 
2284.428 -966504 -942732 -923721 -911983 -908578 -912446 -921043 -930003 
2288.286 -935690 -935855 -930235 -920250 -908313 -896542 -885796 -876338 
2292.143 -867642 -859375 -851240 -843435 -835895 -827727 -817739 -804345 
2296.001 -786882 -765979 -743222 -721424 -702635 -687550 -675574 -664822 
2299.858 -653375 -640273 -626410 -613639 -604374 -600040 -601066 -606194 
2303.716 -613937 -622870 -632664 -643780 -657279 -673556 -692016 -710805 
2307.573 -727940 -741734 -751889 -759099 -764788 -770577 -776927 -783211 
2311.430 -788503 -791347 -791579 -789793 -787345 -785394 -784733 -784766 
2315.288 -784931 -783939 -781094 -776232 -769948 -762539 -754502 -745968 
2319.145 -736342 -725327 -712691 -698301 -682587 -666774 -652151 -641398 
2323.003 -637891 -645104 -666245 -703329 -755527 -819658 -890557 -961677 
2326.860 -1026868 -1082398 -1126453 -1160161 -1186233 -1207348 -1225355 
2330.235 -1241281 -1254628 -1264870 -1271313 -1273988 -1273130 -1268273 
2333.611 -1259089 -1244684 -1224529 -1199186 -1169910 -1139606 -1110788 
2336.986 -1085240 -1063591 -1045411 -1029049 -1013810 -999298 -985744 
2340.361 -974140 -964784 -957048 -950072 -942468 -933177 -921638 -907917 
2344.219 -891152 -869990 -841914 -803684 -752881 -688741 -612547 -527968 
2348.076 -439532 -352105 -270521 -198361 -138577 -93229 -63678 -49698 -49797 
2352.416 -61691 -81237 -104359 -127812 -149176 -167360 -182728 -195844 
2356.273 -207237 -216443 -222603 -224127 -220351 -210648 -195181 -174846 
2360.130 -150733 -123671 -95084 -67091 -41150 -19349 -2551 9675 19582 30418 
2364.952 45727 67863 96961 131661 168651 204750 237669 266578 291677 314158 
2369.774 334849 354015 371724 388073 403528 419547 437987 460840 489068 
2374.114 523269 563412 608999 660034 716650 779514 848994 924893 1006618 
2378.453 1092609 1181675 1272686 1365012 1458621 1553514 1649326 1745392 
2382.311 1840647 1933826 2023830 2109291 2189607 2263676 2330761 2390128 
2386.168 2441206 2484092 2519284 2547446 2569243 2584842 2594275 2596342 
2390.025 2591109 2578376 2559011 2534947 2508152 2480559 2453101 2426312 
2393.883 2399657 2372937 2346085 2319669 2294619 2271902 2252085 2235565 
2397.740 2222510 2213118 2208489 2209321 2217281 2233001 2256648 2287458 
2401.598 2324266 2365774 2411252 2460366 2513551 2570810 2631943 2696418 
2405.455 2762937 2830868 2899675 2969729 3042029 3117712 3197647 3282070 
2409.313 3370985 3463825 3559825 3658353 3758541 3859353 3959755 4058473 
2413.170 4154170 4246108 4333680 4416350 4493344 4563119 4623797 4672927 
2417.027 4708866 4731007 4740286 4739482 4731643 4720422 4708430 4696842 
2420.885 4685889 4675104 4663516 4650722 4636422 4621017 4604708 4588132 
2424.742 4572093 4557561 4546578 4540819 4542426 4552873 4572829 4602029 
2428.600 4639704 4684884 4736936 4795560 4861129 4934080 5014752 5103083 
2432.457 5198776 5301064 5409381 5522960 5641269 5764008 5890476 6020879 
2436.314 6155051 6293769 6437945 6588696 6746836 6912877 7086828 7268060 
2440.172 7456244 7651118 7852255 8059763 8273381 8492477 8716518 8944564 
2444.029 9176182 9411174 9650121 9893505 10141808 10395071 10652455 10912846 
2447.887 11174685 11436852 11698463 11959005 12217625 12473807 12726524 
2451.262 12974472 13216822 13452337 13680491 13900382 14111040 14311493 
2454.637 14499499 14673536 14831150 14969992 15087747 15181823 15249562 
2458.012 15288343 15295791 15270119 15210715 15117868 14992595 14836670 
2461.388 14651876 14440270 14203501 13943525 13662847 13364205 13051086 
2464.763 12726729 12394465 12057685 11718988 11381848 11050204 10728185 
2468.138 10420728 10132446 9866591 9624612 9406636 9210668 9034950 8877734 
2471.996 8738459 8617107 8514238 8429230 8360216 8304317 8257543 8216042 
2475.853 8176975 8139026 8102195 8067763 8036676 8009809 7987129 7967825 
2479.710 7950142 7932392 7913022 7890112 7863051 7831506 7796084 7758404 
2483.568 7720425 7684135 7651186 7622016 7596052 7572551 7549961 7527542 
2487.425 7505257 7483851 7464401 7448154 7435682 7427256 7422537 7421088 
2491.283 7421931 7424458 7427660 7430289 7431233 7429245 7423784 7415122 
2495.140 7404370 7392776 7381857 7372252 7363658 7354862 7344618 7331003 
2498.998 7313279 7290905 7264354 7234570 7202801 7170260 7138630 7109327 
2502.855 7083797 7062849 7046819 7034763 7025368 7016714 7007319 6996308 
2506.712 6984119 6971526 6959607 6948766 6938833 6928801 6917523 6904023 
2510.570 6888402 6871402 6854403 6838415 6824109 6811353 6798832 6785572 
2514.427 6770124 6752287 6732096 6710189 6687611 6665000 6642760 6621228 
2518.285 6600067 6579109 6557984 6536657 6515500 6495051 6476452 6461486 
2522.142 6451700 6448438 6452742 6464110 6481094 6501946 6523808 6544327 
2526.000 6562188 6576720 6587822 6596602 6604474 6612615 6622439 6634685 
2529.857 6649085 6665471 6682362 6698244 6712343 6723986 6733711 6742730 
2533.714 6752792 6765682 6782139 6802467 6825792 6851138 6877697 6905201 
2537.572 6933851 6964253 6996847 7031497 7067430 7103399 7137821 7170260 
2541.429 7199904 7227023 7252258 7275843 7298115 7319310 7339394 7358704 
2545.287 7377779 7397259 7417886 7439795 7463019 7487020 7511224 7534959 
2549.144 7557648 7578924 7598514 7616183 7631897 7645959 7658672 7671184 
2553.001 7684168 7698468 7714556 7731892 7749702 7766972 7782692 7796252 
2556.859 7807081 7815144 7820036 7821486 7818957 7812142 7801144 7786571 
2560.716 7769300 7750680 7731656 7712634 7693713 7674556 7654693 7634123 
2564.574 7612980 7591433 7569820 7548242 7526395 7504179 7481795 7459783 
2568.431 7439357 7421661 7408078 7399450 7396315 7398438 7405314 7416302 
2572.289 7430727 7447378 7465379 7483716 7500875 7516214 7529598 7541263 
2576.146 7552456 7564257 7577474 7592714 7610147 7628930 7649027 7669700 
2580.003 7691217 7713949 7738537 7765758 7796118 7830325 7868315 7910222 
2583.861 7955339 8002620 8050413 8097030 8141052 8181904 8219925 8256327 
2587.718 8293071 8331810 8373356 8417778 8463961 8510319 8555734 8599330 
2591.576 8641239 8682207 8723347 8765438 8808851 8853521 8899006 8944666 
2595.433 8990263 9035356 9079643 9122783 9164507 9204576 9243160 9280664 
2599.291 9318170 9356595 9397224 9441005 9488381 9539454 9593988 9651612 
2603.148 9711716 9773626 9837103 9901572 9967035 10033626 10101685 10171520 
2607.005 10243502 10317328 10392492 10467973 10542789 10616021 10687296 
2610.381 10756783 10824684 10891407 10957086 11021417 11083615 11142762 
2613.756 11197940 11248399 11293863 11334027 11368787 11398209 11422564 
2617.131 11442159 11457978 11470770 11481622 11491523 11501049 11510644 
2620.506 11520341 11530651 11542083 11555558 11571824 11591628 11615416 
2623.882 11642711 11672935 11705475 11739685 11775602 11813597 11854320 
2627.257 11898145 11945415 11995791 12048794 12104359 12161977 12221918 
2630.632 12284187 12348953 12416183 12485196 12555756 12626975 12698752 
2634.007 12770643 12843057 12915791 12989220 13063174 13137686 13212758 
2637.383 13288492 13364752 13441605 13518849 13596107 13672523 13747756 
2640.758 13821360 13893608 13965013 14036497 14108918 14182720 14257904 
2644.133 14333855 14409579 14484049 14556476 14626996 14696088 14765122 
2647.508 14835676 14909259 14987004 15069051 15154853 15243315 15332997 
2650.884 15422559 15511351 15599232 15686823 15775118 15865013 15957160 
2654.259 16051630 16147979 16245449 16343249 16440935 16538402 16636133 
2657.634 16734608 16834242 16935450 17038024 17141518 17244936 17347444 
2661.009 17448150 17546362 17641834 17734428 17824660 17913114 18000550 
2664.385 18087660 18174994 18262518 18350336 18438000 18525404 18612342 
2667.760 18699402 18786996 18875788 18966428 19059098 19153692 19249656 
2671.135 19346266 19443002 19539308 19634942 19729522 19823152 19915484 
2674.510 20006066 20094444 20180276 20263344 20343894 20422098 20498508 
2677.885 20573578 20647724 20721116 20794102 20866930 20940776 21016862 
2681.261 21096926 21182432 21275052 21375874 21485456 21603772 21730898 
2684.636 21866216 22009278 22159534 22316506 22479712 22648492 22822124 
2688.011 23000296 23182422 23368784 23559110 23753858 23952932 24156122 
2691.386 24363090 24573170 24786088 25002060 25221300 25444516 25672448 
2694.762 25905462 26143456 26386476 26633718 26885190 27140438 27400040 
2698.137 27664384 27933696 28207880 28486126 28767418 29050382 29334346 
2701.512 29618494 29903006 30187706 30472768 30757700 31041608 31323134 
2704.887 31600642 31872444 32137066 32392528 32637142 32868992 33085946 
2708.263 33285730 33466890 33628216 33769368 33890616 33992832 34076540 
2711.638 34142740 34191852 34223900 34238812 34236556 34216908 34179768 
2715.013 34125072 34052636 33962016 33852932 33725252 33578960 33415034 
2718.388 33235222 33041504 32836758 32623674 32404880 32182664 31959028 
2721.764 31735648 31514342 31297210 31086558 30884440 30693224 30514284 
2725.139 30348494 30196550 30058542 29934742 29825490 29731526 29653506 
2728.514 29592102 29547270 29519040 29506556 29508934 29524858 29552840 
2731.889 29591536 29639246 29694342 29755440 29821658 29892572 29968394 
2735.265 30049630 30136668 30229974 30328704 30431754 30537532 30644438 
2738.640 30751120 30856974 30961896 31065560 31167966 31268474 31366370 
2742.015 31460940 31551540 31638526 31722390 31804166 31884744 31964664 
2745.390 32044024 32122686 32200612 32277912 32355330 32433658 32513640 
2748.766 32595388 32678794 32762896 32846618 32929324 33010754 33091452 
2752.141 33172056 33253856 33337750 33424698 33515278 33610064 33709924 
2755.516 33815428 33927408 34046112 34171812 34303600 34440888 34582016 
2758.891 34725524 34869728 35012576 35152096 35286524 35413440 35531156 
2762.267 35637748 35731668 35811508 35875884 35923716 35953948 35965972 
2765.642 35960212 35937136 35898344 35846016 35782076 35708792 35628256 
2769.017 35542264 35452912 35362468 35272904 35186516 35105252 35030072 
2772.392 34961616 34899744 34844092 34794120 34749392 34709732 34674740 
2775.768 34644272 34617936 34595044 34574732 34555644 34535984 34513812 
2779.143 34486620 34451216 34405052 34345632 34271436 34182456 34079800 
2782.518 33965708 33843224 33715724 33586260 33457548 33332024 33211436 
2785.893 33096888 32989162 32888006 32792874 32702372 32615032 32529532 
2789.269 32445118 32361292 32278340 32196690 32116692 32038424 31962022 
2792.644 31887278 31814434 31743668 31675768 31611190 31550438 31493324 
2796.019 31439352 31387172 31335350 31282182 31225960 31165510 31099834 
2799.394 31028866 30952500 30871452 30786580 30698556 30608136 30515670 
2802.770 30420702 30322840 30221664 30116708 30008194 29896688 29783544 
2806.145 29670040 29557520 29447266 29339876 29235842 29135448 29039116 
2809.520 28946878 28859230 28776588 28699628 28628518 28563898 28506046 
2812.895 28455134 28410772 28372922 28341232 28315414 28295574 28282278 
2816.271 28276302 28278672 28290482 28312372 28344946 28388488 28443070 
2819.646 28509194 28587324 28678070 28781792 28898608 29027886 29168262 
2823.021 29318216 29475848 29639744 29808526 29980964 30156166 30332754 
2826.396 30509484 30684262 30855302 31020646 31178610 31327728 31466960 
2829.771 31594976 31710912 31813934 31903572 31979714 32042668 32093290 
2833.147 32132640 32162506 32184664 32201398 32215494 32229624 32246362 
2836.522 32267884 32295652 32330308 32372002 32421056 32477968 32544282 
2839.897 32622106 32714662 32825354 32957204 33113766 33298574 33515528 
2843.272 33769516 34067260 34415992 34823452 35296840 35840584 36455020 
2846.648 37134312 37865824 38627612 39390452 40119128 40772260 41310552 
2850.023 41698816 41909540 41929100 41757216 41408264 40906616 40285744 
2853.398 39584048 38837684 38081964 37347128 36655460 36023964 35462836 
2856.773 34976016 34563036 34219240 33938048 33710856 33528664 33383294 
2860.149 33266914 33173128 33096924 33034854 32984514 32944802 32915704 
2863.524 32897406 32890972 32897546 32918456 32955236 33009720 33083658 
2866.899 33178818 33296640 33437580 33601616 33787528 33992760 34213680 
2870.274 34445728 34683356 34920284 35149976 35366604 35564920 35741924 
2873.650 35896832 36031376 36149292 36255896 36356980 36457936 36563464 
2877.025 36677416 36802468 36940760 37093676 37262060 37446040 37645348 
2880.400 37859172 38086340 38325532 38575684 38835436 39103032 39375760 
2883.775 39649456 39918900 40177892 40419696 40638492 40830352 40993528 
2887.151 41129008 41240520 41334456 41418428 41501216 41592000 41699184 
2890.526 41831092 41996032 42202368 42460388 42782804 43184720 43685088 
2893.901 44304564 45063704 45982016 47072252 48336888 49762996 51319752 
2897.276 52955052 54592480 56144236 57510424 58592028 59310712 59612248 
2900.652 59479084 58930636 58021484 56831424 55446848 53959548 52450408 
2904.027 50981776 49602620 48344632 47225748 46255520 45436800 44768132 
2907.402 44245752 43864736 43619944 43506208 43519468 43655740 43910888 
2910.777 44280240 44756964 45331304 45991148 46720324 47498600 48304300 
2914.153 49111276 49891916 50620084 51269936 51821072 52259884 52580012 
2917.528 52782908 52875932 52871068 52781188 52617932 52390704 52104636 
2920.903 51761716 51361892 50905136 50393112 49831820 49231016 48605956 
2924.278 47975024 47357016 46770328 46230460 45747624 45328284 44974796 
2927.654 44686152 44459400 44289740 44171392 44096640 44056740 44041632 
2931.029 44039872 44040424 44031952 44004012 43947692 43855168 43720408 
2934.404 43539576 43311332 43036780 42719664 42365584 41982052 41576360 
2937.779 41156696 40731024 40306904 39892420 39495568 39123444 38782392 
2941.155 38476836 38208576 37976684 37777984 37606832 37455900 37317012 
2944.530 37180080 37034640 36870452 36677884 36449832 36183184 35879520 
2947.905 35545392 35191152 34829484 34473708 34134460 33819692 33533570 
2951.280 33276324 33045616 32837364 32647182 32470040 32302220 32140418 
2954.656 31982280 31826198 31671204 31516374 31361240 31205098 31047122 
2958.031 30887072 30725050 30561776 30398740 30237896 30081340 29930906 
2961.406 29788122 29653720 29528546 29413298 29309034 29216846 29138566 
2964.781 29075606 29029022 28999726 28987752 28992996 29014566 29051658 
2968.156 29103278 29167978 29244632 29332324 29430282 29538582 29657870 
2971.532 29789294 29933994 30092560 30264504 30447890 30638322 30829264 
2974.907 31011996 31175264 31306292 31392764 31422752 31387846 31283784 
2978.282 31112150 30879280 30596616 30279070 29942090 29601112 29270222 
2981.657 28959808 28677788 28428602 28213360 28030384 27875078 27741692 
2985.033 27622788 27511646 27402968 27293506 27182694 27072336 26965602 
2988.408 26865590 26774130 26690476 26611208 26530050 26439118 26330530 
2991.783 26198038 26038498 25852746 25645946 25427020 25205498 24991602 
2995.158 24793352 24615214 24458494 24321282 24200260 24091638 23992462 
2998.534 23901078 23817032 23740314 23671308 23609730 23554982 23506362 
3001.909 23462956 23424418 23390498 23361022 23335916 23314556 23296480 
3005.284 23281308 23268932 23259566 23254182 23253446 23257922 23267360 
3008.659 23281168 23298228 23317598 23338436 23360638 23384240 23409696 
3012.035 23437252 23467328 23499540 23533784 23569920 23607876 23647760 
3015.410 23689854 23734364 23781470 23831102 23883122 23937140 23992882 
3018.785 24050032 24108626 24168558 24229760 24291846 24354434 24416538 
3022.160 24477388 24535830 24591052 24642460 24690366 24735436 24779004 
3025.536 24823066 24869308 24919308 24974440 25034738 25099748 25168140 
3028.911 25238050 25307340 25373938 25436434 25494056 25547328 25596950 
3032.286 25644506 25691466 25738926 25787446 25836920 25887104 25937538 
3035.661 25988226 26039238 26091310 26144934 26200610 26258472 26318774 
3039.037 26381476 26446724 26514974 26586548 26661726 26740548 26822484 
3042.412 26907078 26993702 27081894 27171442 27262034 27353244 27444614 
3045.787 27534910 27623422 27709518 27793368 27875822 27958008 28041270 
3049.162 28126280 28213360 28302080 28391706 28481420 28570940 28659914 
3052.538 28748232 28835220 28920458 29003126 29082620 29159474 29234636 
3055.913 29310382 29388622 29471202 29558798 29650740 29745752 29842100 
3059.288 29938434 30033864 30128320 30222160 30315700 30409010 30501986 
3062.663 30594518 30686610 30778860 30872094 30967588 31066450 31169496 
3066.039 31276844 31388596 31503764 31621062 31739284 31856504 31971048 
3069.414 32081622 32187946 32290370 32390352 32490146 32591746 32696656 
3072.789 32805558 32918136 33033352 33150316 33268164 33386946 33506650 
3076.164 33627608 33749496 33872024 33994368 34115968 34236772 34357140 
3079.540 34477936 34599992 34723696 34848724 34974616 35100184 35225072 
3082.915 35349348 35473120 35597072 35721456 35846052 35970180 36093088 
3086.290 36214264 36333884 36452676 36571968 36693240 36817688 36945844 
3089.665 37077832 37213180 37350920 37490180 37629776 37768800 37906280 
3093.041 38041960 38175760 38308596 38441648 38575972 38713200 38853768 
3096.416 38997684 39144328 39292544 39441248 39589528 39736916 39883156 
3099.791 40028320 40172732 40316792 40460972 40605928 40752388 40900500 
3103.166 41050736 41202920 41356584 41511388 41666908 41822992 41979828 
3106.542 42137372 42295676 42454544 42613248 42771176 42927584 43082004 
3109.917 43234316 43384372 43532212 43677796 43820712 43960968 44098696 
3113.292 44234672 44369996 44506016 44644144 44785064 44928788 45074800 
3116.667 45222152 45369992 45517852 45665720 45813488 45961200 46108632 
3120.042 46254788 46398816 46539680 46677088 46811068 46942876 47073912 
3123.418 47205648 47338980 47474500 47611832 47750172 47888924 48027684 
3126.793 48166784 48306708 48448380 48592392 48739200 48888208 49038488 
3130.168 49189232 49339692 49489572 49639100 49788636 49938896 50090212 
3133.543 50242732 50396460 50551176 50707172 50864788 51024628 51186872 
3136.919 51351636 51518444 51686320 51854004 52020664 52185636 52348724 
3140.294 52510416 52670788 52830316 52989116 53147232 53304800 53462168 
3143.669 53619660 53778080 53937716 54099024 54261896 54426444 54592556 
3147.044 54760236 54929336 55099624 55270512 55441052 55610340 55777924 
3150.420 55943348 56107628 56271704 56436756 56603488 56771868 56941260 
3153.795 57110684 57279488 57447108 57613664 57779448 57944804 58109620 
3157.170 58273392 58436132 58597492 58758268 58919364 59081852 59246568 
3160.545 59413276 59581308 59749216 59915740 60080276 60242856 60404124 
3163.921 60564464 60724180 60882960 61039816 61193868 61344728 61492856 
3167.296 61639200 61785024 61931124 62077924 62224736 62370524 62514372 
3170.671 62655472 62793172 62927700 63059248 63188376 63315324 63440696 
3174.046 63565068 63688516 63811308 63933096 64053156 64171100 64286500 
3177.422 64399892 64512128 64624576 64737984 64852336 64966528 65078528 
3180.797 65186428 65288656 65385172 65477080 65566668 65655648 65745504 
3184.172 65836756 65928840 66020988 66112488 66203824 66294872 66386552 
3187.547 66478944 66571860 66664764 66756524 66846788 66935152 67021476 
3190.923 67105808 67187720 67267056 67343656 67417912 67490752 67563168 
3194.298 67636304 67710344 67784152 67856584 67925696 67990640 68051864 
3197.673 68111048 68170352 68231648 68295512 68360896 68426088 68489048 
3201.048 68548520 68604632 68658376 68711320 68764616 68818528 68872656 
3204.424 68925856 68977312 69026720 69074064 69119632 69163112 69204064 
3207.799 69241800 69276032 69307712 69338384 69370448 69405552 69444616 
3211.174 69486464 69528800 69569328 69606120 69638944 69669328 69699240 
3214.549 69731136 69765728 69802728 69840472 69877248 69911344 69942176 
3217.925 69970240 69996632 70022480 70048680 70075936 70104672 70135400 
3221.300 70168648 70205456 70246120 70290880 70339072 70389840 70442168 
3224.675 70494976 70548024 70600992 70653816 70705832 70756872 70805744 
3228.050 70851728 70894208 70932824 70967944 71000320 71031696 71063888 
3231.426 71099480 71141128 71191016 71250392 71318520 71393344 71471848 
3234.801 71549944 71624800 71694672 71759512 71820688 71879960 71939472 
3238.176 72000088 72062392 72126504 72192624 72260816 72331624 72404616 
3241.551 72479040 72552968 72624128 72690664 72752328 72810192 72867096 
3244.927 72926304 72990592 73061576 73138624 73220192 73303808 73387568 
3248.302 73470360 73552424 73634464 73717144 73800432 73883768 73965712 
3251.677 74044608 74118960 74187896 74251384 74309768 74364104 74415544 
3255.052 74465408 74514576 74564144 74614624 74665808 74717560 74769192 
3258.427 74819776 74868744 74915360 74959528 75001160 75040064 75076496 
3261.803 75110296 75141096 75168832 75192584 75211536 75224736 75231672 
3265.178 75232104 75226592 75216896 75204720 75192584 75182144 75174312 
3268.553 75168752 75163912 75158192 75149408 75135816 75116440 75090328 
3271.928 75057480 75018488 74974224 74926456 74877056 74828824 74783328 
3275.304 74741800 74703936 74668288 74632328 74593608 74550688 74503016 
3278.679 74451136 74396664 74341296 74286136 74232200 74179832 74129768 
3282.054 74082528 74038992 73999464 73964064 73931728 73901016 73870144 
3285.429 73837624 73802984 73766656 73730056 73694248 73660496 73629080 
3288.805 73599800 73572168 73545712 73520592 73497240 73475968 73457376 
3292.180 73441832 73429160 73419664 73413384 73410680 73412136 73418528 
3295.555 73430336 73448112 73472440 73503560 73541864 73587080 73638544 
3298.930 73695000 73754288 73814216 73873248 73930520 73986888 74044016 
3302.306 74104104 74169264 74240800 74318728 74402288 74489880 74579880 
3305.681 74670728 74761240 74850992 74940120 75029280 75119864 75213424 
3309.056 75311864 75416376 75527592 75644712 75766440 75890792 76016656 
3312.431 76143104 76270376 76399264 76530376 76663648 76798272 76932744 
3315.807 77065672 77195984 77323808 77450000 77575600 77701200 77826784 
3319.182 77951816 78075344 78196672 78315464 78431872 78546312 78658296 
3322.557 78767120 78871168 78969600 79061848 79148472 79230776 79310392 
3325.932 79388272 79464104 79536680 79604488 79665904 79720208 79767664 
3329.308 79809312 79845944 79878000 79905240 79926672 79940848 79947024 
3332.683 79943920 79931096 79907752 79873424 79827904 79771528 79705440 
3336.058 79631400 79551408 79466928 79378176 79283824 79181552 79068968 
3339.433 78944448 78807440 78659016 78501096 78335392 78162960 77983976 
3342.809 77797736 77603216 77399824 77187360 76965976 76736160 76498128 
3346.184 76252288 75998896 75738864 75473776 75205704 74936576 74668368 
3349.559 74402008 74137664 73875208 73614288 73354688 73096752 72840640 
3352.934 72586528 72334160 72083752 71835232 71589520 71347848 71112048 
3356.310 70883632 70663408 70451048 70245424 70045296 69849936 69659176 
3359.685 69474176 69296400 69126856 68965968 68812904 68666176 68524392 
3363.060 68386296 68251544 68120512 67993624 67871312 67753088 67638664 
3366.435 67527520 67419816 67316384 67218432 67127616 67044640 66969744 
3369.811 66901520 66837752 66775532 66711472 66642740 66566496 66480488 
3373.186 66383080 66273408 66151112 66016240 65869184 65710036 65538920 
3376.561 65355324 65158396 64947180 64720556 64477684 64217576 63939548 
3379.936 63642664 63326404 62990480 62634804 62260028 61866856 61456516 
3383.312 61030088 60588656 60133476 59666108 59188388 58702200 58209892 
3386.687 57713372 57214088 56712968 56210684 55707552 55204324 54701752 
3390.062 54200780 53702216 53207000 52715452 52228532 51746712 51270720 
3393.437 50801056 50337524 49879536 49425968 48975100 48526104 48078904 
3396.813 47634720 47195456 46763240 46339088 45922528 45511484 45103220 
3400.188 44694416 44283064 43868288 43451200 43033268 42616652 42202840 
3403.563 41792456 41385700 40982132 40581952 40185596 39793416 39406308 
3406.938 39024288 38647240 38274504 37905232 37538768 37174592 36812312 
3410.313 36452352 36094312 35739084 35387128 35039588 34697784 34362988 
3413.689 34036044 33717588 33407162 33104290 32807704 32516890 32231160 
3417.064 31950076 31673130 31399496 31127812 30856974 30586236 30315842 
3420.439 30046754 29781096 29520920 29267848 29022644 28784590 28552256 
3423.814 28324078 28098390 27874620 27652554 27432508 27214972 27000050 
3427.190 26787698 26577460 26368978 26161828 25956322 25752356 25549998 
3430.565 25349594 25150934 24953980 24758764 24565386 24374198 24185198 
3433.940 23998554 23814406 23632366 23452256 23273898 23097114 22921872 
3437.315 22748132 22575786 22404800 22234996 22066026 21897890 21730130 
3440.691 21562648 21395608 21229158 21064196 20901452 20741898 20585842 
3444.066 20433072 20282230 20131788 19979490 19824574 19666836 19507976 
3447.441 19350768 19197912 19051792 18912920 18779940 18650628 18521808 
3450.816 18390710 18256402 18118958 17979900 17841160 17704642 17571478 
3454.192 17441872 17315272 17191018 17068038 16945612 16823220 16700448 
3457.567 16577300 16453806 16330382 16207235 16084775 15962970 15841164 
3460.942 15718978 15595282 15469906 15343157 15216309 15090869 14968724 
3464.317 14851036 14738042 14629497 14524235 14421430 14320362 14221235 
3467.693 14124081 14029208 13936716 13845647 13755280 13664693 13573338 
3471.068 13481320 13389286 13297921 13207839 13119245 13031829 12945591 
3474.443 12860497 12776955 12695749 12617628 12542932 12471420 12402545 
3477.818 12334907 12267725 12200210 12132401 12064840 11998448 11933870 
3481.194 11871993 11813597 11758511 11707040 11658776 11613476 11570462 
3484.569 11529698 11490638 11453283 11417904 11384909 11354365 11326375 
3487.944 11300596 11276486 11253634 11231532 11210078 11189270 11169483 
3491.319 11150411 11131952 11114106 11096735 11080929 11068251 11060468 
3494.695 11059958 11068421 11086266 11112915 11147148 11187945 11234117 
3498.070 11286314 11344740 11410454 11483392 11562670 11645944 11730528 
3501.445 11814074 11895319 11975354 12056596 12143236 12239641 12348850 
3504.820 12472784 12610909 12761429 12921219 13086769 13255730 13426124 
3508.196 13597679 13771560 13949718 14134144 14326287 14526428 14733654 
3511.571 14945986 15160823 15376248 15590783 15803775 16015291 16225291 
3514.946 16432919 16637234 16836686 17029786 17215768 17394174 17564956 
3518.321 17727698 17880900 18021724 18146732 18252256 18335508 18394822 
3521.697 18430532 18443912 18436998 18411486 18368724 18308654 18230242 
3525.072 18131670 18010428 17864292 17691044 17490164 17262828 17012042 
3528.447 16742390 16458659 16165173 15864806 15558878 15247605 14931000 
3531.822 14610067 14286085 13961112 13636416 13312339 12988059 12662213 
3535.198 12333612 12002739 11671402 11343448 11022572 10711679 10411971 
3538.573 10123017 9843204 9571124 9305950 9047840 8797457 8554720 8319042 
3542.430 8088050 7859509 7630750 7400562 7168811 6937218 6707834 6483447 
3546.288 6266439 6059046 5862701 5678463 5506551 5345877 5194081 5047836 
3550.145 4902947 4756130 4605378 4451364 4296835 4146108 4003058 3870519 
3554.002 3748982 3636902 3531030 3428323 3326008 3222715 3118079 3012300 
3557.860 2906147 2799886 2693684 2587442 2481293 2376068 2272535 2172557 
3561.717 2077095 1987513 1903508 1823777 1745225 1663661 1573899 1471387 
3565.575 1353678 1221379 1079090 934988 798335 676892 574460 490793 421636 
3569.914 360979 303216 244067 181181 114493 44567 -26870 -98463 -169116 
3574.254 -238135 -305189 -370115 -433077 -494773 -555997 -617510 -679974 
3578.111 -742925 -805503 -865889 -922729 -974537 -1021347 -1064054 -1103682 
3581.969 -1141523 -1177708 -1212502 -1246005 -1279043 -1313961 -1354063 
3585.344 -1403639 -1465990 -1542199 -1629453 -1721574 -1809914 -1885370 
3588.719 -1942077 -1978030 -1995676 -2000623 -1999832 -2000920 -2009594 
3592.094 -2030339 -2064966 -2113110 -2171567 -2235555 -2299368 -2357438 
3595.470 -2406406 -2444496 -2472863 -2493553 -2510025 -2525541 -2542275 
3598.845 -2561413 -2582922 -2606142 -2629427 -2651558 -2671548 -2688474 
3602.220 -2702403 -2713829 -2723542 -2732926 -2743166 -2756171 -2773193 
3605.595 -2795877 -2824847 -2860266 -2901410 -2946170 -2992011 -3035972 
3608.971 -3075520 -3109603 -3139045 -3166381 -3194767 -3227229 -3265280 
3612.346 -3308325 -3353503 -3395784 -3430960 -3455417 -3468434 -3472247 
3615.721 -3471129 -3470505 -3475830 -3491147 -3518558 -3557504 -3604332 
3619.096 -3653718 -3699419 -3736213 -3761014 -3773562 -3776124 -3772084 
3622.472 -3764890 -3757302 -3750371 -3744162 -3737330 -3729216 -3720707 
3625.847 -3715122 -3717619 -3735424 -3774547 -3837380 -3918855 -4006322 
3629.222 -4083268 -4135094 -4155704 -4148484 -4123246 -4091605 -4063672 
3632.597 -4046241 -4042105 -4049819 -4065346 -4083465 -4099548 -4111365 
3635.973 -4118848 -4123869 -4128858 -4135783 -4145563 -4158067 -4172639 
3639.348 -4187603 -4201976 -4214774 -4225143 -4232723 -4236726 -4236726 
3642.723 -4232066 -4222879 -4210081 -4195348 -4181729 -4172639 -4172081 
3646.098 -4182943 -4207522 -4245716 -4296145 -4355359 -4419223 -4482716 
3649.474 -4541052 -4589054 -4621740 -4635377 -4628296 -4602036 -4561053 
3652.849 -4512230 -4464089 -4424503 -4400003 -4394098 -4406103 -4430702 
3656.224 -4459530 -4484454 -4499966 -4505343 -4503048 -4497965 -4494095 
3659.599 -4493964 -4498227 -4505409 -4513902 -4521542 -4527117 -4529478 
3662.975 -4528002 -4521608 -4509508 -4490849 -4466089 -4436638 -4405480 
3666.350 -4376681 -4354736 -4344075 -4347913 -4367332 -4399937 -4439557 
3669.725 -4475829 -4495768 -4488947 -4449659 -4379535 -4285909 -4180679 
3673.100 -4077360 -3989283 -3928606 -3903552 -3915472 -3956812 -4014890 
3676.476 -4076802 -4135422 -4190425 -4245848 -4306250 -4372974 -4443723 
3679.851 -4512820 -4573710 -4621084 -4653309 -4671731 -4679729 -4680811 
3683.226 -4676550 -4667372 -4653047 -4634230 -4613871 -4597151 -4590561 
3686.601 -4600233 -4629378 -4676452 -4734270 -4792277 -4840316 -4871247 
3689.977 -4883927 -4881895 -4870199 -4853947 -4835467 -4815642 -4794440 
3693.352 -4771796 -4748494 -4726634 -4708344 -4695594 -4688580 -4686187 
3696.727 -4685728 -4684187 -4679270 -4671010 -4661078 -4653047 -4650686 
3700.102 -4657144 -4673075 -4696217 -4722176 -4744725 -4758687 -4761276 
3703.478 -4751935 -4732926 -4707525 -4679369 -4651342 -4625378 -4602528 
3706.853 -4583677 -4569710 -4561644 -4560824 -4568201 -4583939 -4607774 
3710.228 -4637213 -4669600 -4700871 -4727256 -4745282 -4752591 -4748462 
3713.603 -4733746 -4710344 -4681991 -4652031 -4624395 -4602495 -4587742 
3716.979 -4580759 -4580726 -4585644 -4593971 -4604397 -4617248 -4632951 
3720.354 -4652031 -4673927 -4696315 -4715981 -4729092 -4733614 -4729157 
3723.729 -4718145 -4704936 -4694283 -4689268 -4690743 -4696381 -4701592 
3727.104 -4700216 -4688219 -4663700 -4628394 -4586693 -4544954 -4509869 
3730.479 -4486487 -4477469 -4482618 -4498162 -4519345 -4541315 -4562627 
3733.855 -4584562 -4610167 -4641967 -4679664 -4718800 -4752296 -4772681 
3737.230 -4776121 -4762423 -4735450 -4700576 -4662094 -4623379 -4585480 
3740.605 -4549315 -4517083 -4493210 -4485110 -4501933 -4550233 -4629935 
3743.980 -4728829 -4824326 -4890217 -4911152 -4888120 -4834648 -4769403 
3747.356 -4709164 -4667076 -4649572 -4656882 -4683565 -4721160 -4761571 
3750.731 -4798832 -4830421 -4854799 -4869904 -4872820 -4860697 -4832944 
3754.106 -4792507 -4745184 -4697954 -4657964 -4629673 -4615544 -4614363 
3757.481 -4623084 -4637836 -4654882 -4671174 -4684351 -4691562 -4690186 
3760.857 -4678189 -4655604 -4625084 -4591873 -4562365 -4542921 -4537314 
3764.232 -4545938 -4564889 -4587939 -4607315 -4617707 -4617609 -4609184 
3767.607 -4596758 -4585185 -4578365 -4578037 -4583316 -4591971 -4600758 
3770.982 -4606954 -4608724 -4605348 -4597611 -4586496 -4573578 -4560430 
3774.358 -4548331 -4537937 -4529314 -4522100 -4516263 -4512066 -4510361 
3777.733 -4512230 -4518198 -4527674 -4538101 -4545840 -4547151 -4540462 
3781.108 -4526199 -4507540 -4488816 -4474354 -4467073 -4467270 -4473567 
3784.483 -4482913 -4492390 -4500162 -4506163 -4510885 -4515246 -4519542 
3787.859 -4523280 -4525379 -4525444 -4523608 -4520559 -4517345 -4514165 
3791.234 -4510065 -4503245 -4491603 -4474354 -4452840 -4430604 -4412433 
3794.609 -4403118 -4405316 -4418337 -4437852 -4456972 -4469631 -4472288 
3797.984 -4465729 -4455201 -4448183 -4452938 -4475436 -4516788 -4571447 
3801.360 -4628001 -4671535 -4690743 -4681205 -4647507 -4599577 -4549512 
3804.735 -4509508 -4488554 -4490128 -4512000 -4545315 -4577578 -4596955 
3808.110 -4597315 -4579087 -4547938 -4510820 -4474058 -4440935 -4412204 
3811.485 -4386062 -4360903 -4336891 -4316124 -4303724 -4305003 -4324129 
3814.861 -4361100 -4410400 -4460711 -4498949 -4516099 -4509967 -4485635 
3818.236 -4453561 -4426504 -4416041 -4430177 -4470976 -4532494 -4601315 
3821.611 -4659898 -4694578 -4699396 -4677107 -4636754 -4589381 -4545217 
3824.986 -4511246 -4490128 -4480191 -4476649 -4473435 -4465794 -4452479 
3828.362 -4434802 -4417255 -4404234 -4399576 -4404365 -4417353 -4434736 
3831.737 -4452020 -4464515 -4469336 -4465597 -4454512 -4439131 -4423683 
3835.112 -4412794 -4411252 -4422175 -4446477 -4481437 -4522067 -4560168 
3838.487 -4588922 -4603610 -4603708 -4592397 -4574529 -4555217 -4538593 
3841.863 -4526559 -4519017 -4514525 -4511246 -4506884 -4500424 -4491210 
3845.238 -4479076 -4464515 -4447822 -4429456 -4409416 -4387374 -4362904 
3848.613 -4335020 -4304052 -4271177 -4240007 -4216939 -4211361 -4232821 
3851.988 -4290404 -4385603 -4509082 -4638917 -4748396 -4816494 -4835860 
3855.364 -4812529 -4759866 -4692185 -4620625 -4552955 -4493505 -4443920 
3858.739 -4404365 -4373893 -4351915 -4337153 -4328492 -4324490 -4324031 
3862.114 -4326491 -4332396 -4342959 -4358574 -4378682 -4400199 -4418501 
3865.489 -4428800 -4427914 -4416960 -4400494 -4386423 -4382225 -4394065 
3868.865 -4422962 -4463958 -4506360 -4538036 -4550692 -4543118 -4520624 
3872.240 -4491767 -4466057 -4449691 -4444740 -4448019 -4453693 -4454512 
3875.615 -4444838 -4422601 -4389375 -4349881 -4310187 -4276821 -4255396 
3878.990 -4249457 -4258874 -4279839 -4305331 -4327016 -4338531 -4337350 
3882.365 -4325770 -4309924 -4297884 -4297687 -4313926 -4346600 -4388817 
3885.741 -4429521 -4457300 -4463728 -4447658 -4414073 -4372122 -4331675 
3889.116 -4301132 -4286105 -4288402 -4305167 -4329838 -4354998 -4373040 
3892.491 -4379240 -4372745 -4354277 -4327377 -4295161 -4261400 -4228785 
3895.866 -4199548 -4175559 -4158166 -4148287 -4146220 -4151963 -4164401 
3899.242 -4181663 -4201615 -4221829 -4240795 -4258152 -4274622 -4291781 
3902.617 -4311105 -4332954 -4355720 -4376484 -4391638 -4397674 -4393081 
3905.992 -4378157 -4354900 -4326097 -4294406 -4262056 -4230163 -4199646 
3909.367 -4171162 -4145925 -4125510 -4111036 -4103815 -4103060 -4107065 
3912.743 -4113301 -4119242 -4123836 -4127348 -4131615 -4139196 -4151930 
3916.118 -4170079 -4192131 -4214643 -4233904 -4247127 -4253001 -4251590 
3919.493 -4243945 -4231345 -4214577 -4194133 -4170702 -4146023 -4122425 
3922.868 -4103454 -4092065 -4090194 -4097054 -4110248 -4125116 -4136636 
3926.244 -4141428 -4137818 -4126692 -4110281 -4091966 -4075193 -4062949 
3929.619 -4057566 -4060520 -4072272 -4092065 -4117600 -4145399 -4170834 
3932.994 -4189309 -4197973 -4195774 -4184223 -4166699 -4147204 -4129219 
3936.369 -4114810 -4104472 -4096955 -4090423 -4083137 -4074602 -4064755 
3939.745 -4055400 -4048342 -4045190 -4046799 -4053200 -4063146 -4074931 
3943.120 -4086419 -4095478 -4100533 -4100795 -4096627 -4088487 -4078016 
3946.495 -4066790 -4056023 -4046733 -4039544 -4034390 -4031042 -4029236 
3949.870 -4028777 -4029565 -4031107 -4032782 -4033701 -4033045 -4029696 
3953.246 -4023458 -4014825 -4004713 -3994273 -3984424 -3975756 -3967942 
3956.621 -3960653 -3953627 -3946797 -3940690 -3936126 -3933893 -3934189 
3959.996 -3937013 -3941380 -3946206 -3950310 -3952773 -3953331 -3951952 
3963.371 -3948964 -3944794 -3939738 -3933827 -3926965 -3918953 -3910021 
3966.747 -3899874 -3889038 -3878102 -3867627 -3858464 -3851535 -3846411 
3970.122 -3842996 -3840598 -3838234 -3835114 -3831041 -3826344 -3821319 
3973.497 -3816623 -3812386 -3808280 -3803255 -3796784 -3788573 -3779113 
3976.872 -3770047 -3762755 -3758583 -3758058 -3759864 -3762689 -3764332 
3980.248 -3763675 -3760423 -3755627 -3750995 -3748006 -3747283 -3748630 
3983.623 -3750535 -3751389 -3749977 -3746002 -3740582 -3735227 -3731778 
3986.998 -3731647 -3735227 -3741896 -3750207 -3758485 -3764890 -3768076 
3990.373 -3767452 -3763248 -3756382 -3748334 -3740516 -3734373 -3730497 
3993.749 -3728493 -3727836 -3727113 -3725799 -3723434 -3720641 -3718441 
3997.124 -3718178 -3720871 -3726259 -3733585 -3741436 -3748696 -3754576 
4000.499 -3759372 
##END=
